============================================================ SIMULATION METADATA ============================================================
Spacetime: Kerr
Image Order [-]: 0
Observer Radial Position [M]: 10000
Observer Inclination [Deg]: 20
Observation Frequency [Hz]: 2.3e+11
Active Simulation Mode: 2
Number Of Photons Per Param Value: 500
Number Of Param Values: 1
------------------------------------------------------- Optically Thin Disk Metadata -------------------------------------------------------
Active disk profile: Power law (rho ~ 1 / r^2)
Disk Opening Angle [tan(angle)]: 0.1
R_0 [M]: 4.5
R_Cutoff [M]: 4.5
Cutoff Scale [M]: 0.4
Emission Model: Exact
Disk Magnetization [-]: 0.01
Magnetic Field Geometry: [0.87, 0, 0.5]
Max Electron Temperature [K]: 6.5e+10
Max Disk Density [g / cm^3]: 500000
------------------------------------------------------------- Hotpost Metadata -------------------------------------------------------------
Hotspot Relative Scale [-]: 0
Hotspot Radial Scale [M]: 1
Hotspot r_center [M]: 8
------------------------------------------------------- Novikov-Thorne Disk Metadata -------------------------------------------------------
Inner Disk Radius [M]: 2
Outer Disk Radius [M]: 25
Image X Coord [M], Image Y Coord [M], Novikov-Thorne Disk Redshift [-], Novikov-Thorne Flux [M^-2], Synchotron Intensity I [Jy/sRad] Synchotron Intensity Q [Jy/sRad] Synchotron Intensity U [Jy/sRad] Synchotron Intensity V [Jy/sRad] Source r Coord [M], Source phi Coord [Rad], Radial Momentum (covariant), Theta Momentum (covariant), Phi Momentum (covariant), Spin Parameter
-0.0368943 5.84842 0 0 6.3419e+19 0 0 0 4.4985 -3.1358 0.444777 -5.8491 0.0126199 0.001
-0.110679 5.84742 0 0 6.36006e+19 0 0 0 4.49849 -3.12399 0.444834 -5.84892 0.0378582 0.001
-0.184442 5.84552 0 0 6.37816e+19 0 0 0 4.49853 -3.11218 0.444916 -5.84867 0.063089 0.001
-0.258164 5.84252 0 0 6.3963e+19 0 0 0 4.49845 -3.10026 0.44509 -5.84813 0.0883062 0.001
-0.331847 5.83862 0 0 6.41425e+19 0 0 0 4.49847 -3.08838 0.445292 -5.84752 0.11351 0.001
-0.405469 5.83382 0 0 6.43224e+19 0 0 0 4.49852 -3.07671 0.445518 -5.84683 0.138693 0.001
-0.479022 5.82792 0 0 6.45019e+19 0 0 0 4.49847 -3.06467 0.445838 -5.84586 0.163852 0.001
-0.552485 5.82112 0 0 6.46804e+19 0 0 0 4.49846 -3.05297 0.446183 -5.84481 0.18898 0.001
-0.625847 5.81342 0 0 6.48582e+19 0 0 0 4.49853 -3.04113 0.446558 -5.84367 0.214074 0.001
-0.6991 5.80462 0 0 6.50354e+19 0 0 0 4.49849 -3.02917 0.447026 -5.84226 0.23913 0.001
-0.772213 5.79492 0 0 6.52115e+19 0 0 0 4.49851 -3.01732 0.447523 -5.84076 0.264139 0.001
-0.845205 5.78432 0 0 6.53873e+19 0 0 0 4.49859 -3.00565 0.448049 -5.83918 0.289106 0.001
-0.918028 5.77262 0 0 6.55614e+19 0 0 0 4.49851 -2.99367 0.448669 -5.83731 0.314016 0.001
-0.990691 5.76002 0 0 6.57346e+19 0 0 0 4.49852 -2.98165 0.449321 -5.83535 0.33887 0.001
-1.06319 5.74653 0 0 6.59087e+19 0 0 0 4.49859 -2.9699 0.450003 -5.83331 0.36367 0.001
-1.13549 5.73203 0 0 6.60806e+19 0 0 0 4.49859 -2.95796 0.450749 -5.83107 0.388398 0.001
-1.20758 5.71653 0 0 6.62515e+19 0 0 0 4.49857 -2.94621 0.451561 -5.82865 0.413058 0.001
-1.27937 5.70013 0 0 6.64213e+19 0 0 0 4.49857 -2.93413 0.452412 -5.82611 0.437615 0.001
-1.35106 5.68283 0 0 6.65907e+19 0 0 0 4.49867 -2.92253 0.453292 -5.8235 0.462138 0.001
-1.42246 5.66453 0 0 6.67582e+19 0 0 0 4.49865 -2.91043 0.454239 -5.82069 0.486558 0.001
-1.49355 5.64524 0 0 6.69256e+19 0 0 0 4.49861 -2.89827 0.45526 -5.81766 0.510875 0.001
-1.56444 5.62514 0 0 6.70902e+19 0 0 0 4.49871 -2.88691 0.456283 -5.81465 0.535125 0.001
-1.63504 5.60404 0 0 6.72543e+19 0 0 0 4.49874 -2.87492 0.457378 -5.81142 0.559271 0.001
-1.70533 5.58194 0 0 6.74177e+19 0 0 0 4.4987 -2.86226 0.458544 -5.80799 0.583315 0.001
-1.77522 5.55894 0 0 6.75796e+19 0 0 0 4.49864 -2.85058 0.459758 -5.80443 0.607223 0.001
-1.84492 5.53515 0 0 6.77399e+19 0 0 0 4.49878 -2.83828 0.460977 -5.80087 0.631061 0.001
-1.91421 5.51035 0 0 6.78997e+19 0 0 0 4.49876 -2.827 0.462275 -5.79709 0.654763 0.001
-1.9832 5.48465 0 0 6.80568e+19 0 0 0 4.4988 -2.81469 0.463614 -5.79319 0.678363 0.001
-2.05179 5.45795 0 0 6.82132e+19 0 0 0 4.49875 -2.80252 0.465036 -5.78907 0.701825 0.001
-2.11999 5.43046 0 0 6.8368e+19 0 0 0 4.49879 -2.79023 0.46648 -5.78491 0.725151 0.001
-2.18788 5.40206 0 0 6.85222e+19 0 0 0 4.49883 -2.77881 0.467963 -5.78064 0.748374 0.001
-2.25527 5.37276 0 0 6.86736e+19 0 0 0 4.49884 -2.76657 0.46951 -5.7762 0.771426 0.001
-2.32237 5.34257 0 0 6.88241e+19 0 0 0 4.49892 -2.754 0.471099 -5.77167 0.794376 0.001
-2.38896 5.31147 0 0 6.89733e+19 0 0 0 4.49891 -2.74202 0.47275 -5.76696 0.817155 0.001
-2.45515 5.27947 0 0 6.91206e+19 0 0 0 4.49891 -2.72983 0.474454 -5.76213 0.839796 0.001
-2.52085 5.24668 0 0 6.92664e+19 0 0 0 4.49894 -2.71783 0.476192 -5.75722 0.862267 0.001
-2.58614 5.21298 0 0 6.94106e+19 0 0 0 4.49896 -2.70569 0.477982 -5.75218 0.884601 0.001
-2.65093 5.17848 0 0 6.95531e+19 0 0 0 4.49902 -2.69404 0.479808 -5.74706 0.906764 0.001
-2.71523 5.14309 0 0 6.96936e+19 0 0 0 4.49903 -2.68228 0.481699 -5.74177 0.928756 0.001
-2.77902 5.10679 0 0 6.98325e+19 0 0 0 4.499 -2.6699 0.483656 -5.73632 0.950577 0.001
-2.84232 5.06969 0 0 6.99701e+19 0 0 0 4.499 -2.65755 0.485651 -5.7308 0.972226 0.001
-2.90511 5.0318 0 0 7.01054e+19 0 0 0 4.49906 -2.64518 0.487683 -5.7252 0.993705 0.001
-2.9674 4.9931 0 0 7.02397e+19 0 0 0 4.49914 -2.63292 0.489751 -5.71953 1.01501 0.001
-3.0291 4.9535 0 0 7.03711e+19 0 0 0 4.49913 -2.62111 0.4919 -5.71365 1.03612 0.001
-3.09029 4.91321 0 0 7.05018e+19 0 0 0 4.49925 -2.60792 0.49406 -5.70779 1.05705 0.001
-3.15078 4.87201 0 0 7.06294e+19 0 0 0 4.49917 -2.59687 0.496312 -5.70168 1.07774 0.001
-3.21088 4.83002 0 0 7.07558e+19 0 0 0 4.49924 -2.58343 0.498591 -5.69555 1.0983 0.001
-3.27027 4.78732 0 0 7.08812e+19 0 0 0 4.49929 -2.5729 0.50091 -5.68934 1.11861 0.001
-3.32907 4.74383 0 0 7.10029e+19 0 0 0 4.49932 -2.55895 0.503282 -5.68301 1.13872 0.001
-3.38726 4.69953 0 0 7.11234e+19 0 0 0 4.4993 -2.54741 0.505708 -5.67656 1.15863 0.001
-3.44486 4.65443 0 0 7.12418e+19 0 0 0 4.49933 -2.53581 0.508191 -5.67001 1.17833 0.001
-3.50185 4.60864 0 0 7.13588e+19 0 0 0 4.49938 -2.52218 0.510699 -5.66343 1.19782 0.001
-3.55814 4.56214 0 0 7.14733e+19 0 0 0 4.49945 -2.51094 0.513254 -5.65676 1.21708 0.001
-3.61384 4.51485 0 0 7.15864e+19 0 0 0 4.4995 -2.49708 0.515863 -5.64999 1.23613 0.001
-3.66883 4.46685 0 0 7.16966e+19 0 0 0 4.49955 -2.48654 0.518519 -5.64313 1.25494 0.001
-3.72313 4.41816 0 0 7.18051e+19 0 0 0 4.49957 -2.47361 0.52122 -5.63619 1.27351 0.001
-3.77672 4.36866 0 0 7.19117e+19 0 0 0 4.49952 -2.46062 0.523994 -5.62909 1.29184 0.001
-3.82962 4.31857 0 0 7.2016e+19 0 0 0 4.49956 -2.44757 0.526792 -5.62198 1.30994 0.001
-3.88191 4.26777 0 0 7.21179e+19 0 0 0 4.49967 -2.43666 0.52962 -5.61486 1.32782 0.001
-3.93341 4.21628 0 0 7.22186e+19 0 0 0 4.49966 -2.42297 0.532512 -5.60759 1.34544 0.001
-3.9842 4.16408 0 0 7.23159e+19 0 0 0 4.49968 -2.41069 0.535454 -5.60025 1.36281 0.001
-4.0342 4.11129 0 0 7.2412e+19 0 0 0 4.49969 -2.39805 0.53844 -5.59284 1.37991 0.001
-4.08349 4.05789 0 0 7.25059e+19 0 0 0 4.49976 -2.38523 0.541451 -5.58543 1.39678 0.001
-4.13209 4.0038 0 0 7.25976e+19 0 0 0 4.49983 -2.3729 0.54451 -5.57794 1.4134 0.001
-4.17988 3.94901 0 0 7.26864e+19 0 0 0 4.49984 -2.36064 0.54764 -5.57032 1.42975 0.001
-4.22688 3.89371 0 0 7.27738e+19 0 0 0 4.49989 -2.34737 0.550792 -5.5627 1.44582 0.001
-4.27307 3.83782 0 0 7.28586e+19 0 0 0 4.49994 -2.33397 0.553991 -5.55502 1.46162 0.001
-4.31857 3.78122 0 0 7.29411e+19 0 0 0 4.49996 -2.32223 0.557237 -5.54726 1.47718 0.001
-4.36316 3.72413 0 0 7.30209e+19 0 0 0 4.49999 -2.30856 0.560532 -5.53945 1.49244 0.001
-4.40706 3.66643 0 0 7.31e+19 0 0 0 4.50004 -2.29712 0.563849 -5.53164 1.50745 0.001
-4.45005 3.60824 0 0 7.31753e+19 0 0 0 4.5001 -2.28465 0.567217 -5.52376 1.52216 0.001
-4.49225 3.54945 0 0 7.32495e+19 0 0 0 4.50014 -2.27222 0.570634 -5.51582 1.53659 0.001
-4.53365 3.49015 0 0 7.3321e+19 0 0 0 4.5002 -2.25802 0.574074 -5.50788 1.55075 0.001
-4.57414 3.43026 0 0 7.33894e+19 0 0 0 4.50019 -2.24535 0.577588 -5.49981 1.56461 0.001
-4.61384 3.36996 0 0 7.34568e+19 0 0 0 4.50027 -2.23249 0.581108 -5.49181 1.57818 0.001
-4.65263 3.30907 0 0 7.3521e+19 0 0 0 4.50028 -2.21897 0.584701 -5.48368 1.59145 0.001
-4.69063 3.24778 0 0 7.35832e+19 0 0 0 4.50038 -2.20868 0.588301 -5.47561 1.60445 0.001
-4.72773 3.18598 0 0 7.36435e+19 0 0 0 4.5004 -2.19481 0.591951 -5.46747 1.61714 0.001
-4.76392 3.12369 0 0 7.37007e+19 0 0 0 4.50041 -2.18279 0.595656 -5.45926 1.62952 0.001
-4.79932 3.06099 0 0 7.37567e+19 0 0 0 4.5005 -2.16767 0.599367 -5.45112 1.64163 0.001
-4.83372 2.9979 0 0 7.38089e+19 0 0 0 4.5005 -2.1563 0.603138 -5.44288 1.65339 0.001
-4.86731 2.93431 0 0 7.38598e+19 0 0 0 4.50057 -2.14204 0.606938 -5.43465 1.66489 0.001
-4.90001 2.87031 0 0 7.39078e+19 0 0 0 4.50065 -2.13108 0.610774 -5.42642 1.67607 0.001
-4.93171 2.80602 0 0 7.39528e+19 0 0 0 4.50066 -2.11737 0.614649 -5.41814 1.68691 0.001
-4.9626 2.74123 0 0 7.39963e+19 0 0 0 4.50072 -2.1031 0.618553 -5.40987 1.69748 0.001
-4.9925 2.67613 0 0 7.40357e+19 0 0 0 4.50074 -2.09076 0.622502 -5.40156 1.70771 0.001
-5.0215 2.61064 0 0 7.40726e+19 0 0 0 4.50078 -2.07861 0.626488 -5.39324 1.71763 0.001
-5.04959 2.54485 0 0 7.41065e+19 0 0 0 4.50084 -2.06559 0.630492 -5.38495 1.72724 0.001
-5.07679 2.47875 0 0 7.41369e+19 0 0 0 4.50093 -2.05091 0.634515 -5.37669 1.73654 0.001
-5.10299 2.41226 0 0 7.41617e+19 0 0 0 4.50094 -2.03941 0.638603 -5.36834 1.7455 0.001
-5.12829 2.34557 0 0 7.41817e+19 0 0 0 4.50101 -2.02552 0.642695 -5.36006 1.75415 0.001
-5.15258 2.27857 0 0 7.4195e+19 0 0 0 4.50103 -2.0117 0.646835 -5.35173 1.76246 0.001
-5.17598 2.21128 0 0 7.42002e+19 0 0 0 4.50107 -1.99921 0.650997 -5.34343 1.77047 0.001
-5.19848 2.14369 0 0 7.41961e+19 0 0 0 4.50119 -1.98451 0.655184 -5.33517 1.77816 0.001
-5.21998 2.07589 0 0 7.41786e+19 0 0 0 4.50123 -1.97161 0.659402 -5.32689 1.78552 0.001
-5.24048 2.0078 0 0 7.41435e+19 0 0 0 4.50121 -1.96035 0.66367 -5.31855 1.79253 0.001
-5.26007 1.93961 0 0 7.4091e+19 0 0 0 4.5013 -1.94501 0.667934 -5.31032 1.79923 0.001
-5.27867 1.87111 0 0 7.40108e+19 0 0 0 4.50129 -1.93296 0.672246 -5.30203 1.80559 0.001
-5.29637 1.80252 0 0 7.39009e+19 0 0 0 4.50138 -1.92025 0.676555 -5.29384 1.81165 0.001
-5.31307 1.73373 0 0 7.37505e+19 0 0 0 4.50144 -1.90731 0.680902 -5.28563 1.81736 0.001
-5.32877 1.66473 0 0 7.35491e+19 0 0 0 4.50144 -1.89385 0.685288 -5.2774 1.82273 0.001
-5.34357 1.59564 0 0 7.32909e+19 0 0 0 4.50153 -1.87984 0.689672 -5.26926 1.82779 0.001
-5.35736 1.52645 0 0 7.29581e+19 0 0 0 4.50161 -1.86837 0.694084 -5.26113 1.83251 0.001
-5.37016 1.45715 0 0 7.25366e+19 0 0 0 4.50163 -1.85495 0.698523 -5.253 1.83689 0.001
-5.38206 1.38766 0 0 7.20125e+19 0 0 0 4.50171 -1.84177 0.702974 -5.24492 1.84096 0.001
-5.39296 1.31817 0 0 7.13656e+19 0 0 0 4.50177 -1.82554 0.707443 -5.23688 1.84469 0.001
-5.40286 1.24858 0 0 7.05703e+19 0 0 0 4.50179 -1.81477 0.711941 -5.22882 1.84807 0.001
-5.41186 1.17888 0 0 6.96182e+19 0 0 0 4.50186 -1.80025 0.71644 -5.22085 1.85115 0.001
-5.41986 1.10919 0 0 6.84771e+19 0 0 0 4.50193 -1.78736 0.720962 -5.2129 1.85389 0.001
-5.42686 1.0395 0 0 6.71249e+19 0 0 0 4.50196 -1.77267 0.725506 -5.20496 1.85628 0.001
-5.43296 0.969753 0 0 6.55541e+19 0 0 0 4.50204 -1.76033 0.730046 -5.19711 1.85837 0.001
-5.43806 0.90002 0 0 6.37334e+19 0 0 0 4.50211 -1.74652 0.734611 -5.18927 1.86011 0.001
-5.44216 0.830307 0 0 6.16438e+19 0 0 0 4.50212 -1.73365 0.739198 -5.18143 1.86151 0.001
-5.44536 0.760624 0 0 5.93024e+19 0 0 0 4.50221 -1.71947 0.743778 -5.1737 1.86261 0.001
-5.44756 0.690981 0 0 5.66803e+19 0 0 0 4.50225 -1.70718 0.748381 -5.16596 1.86336 0.001
-5.44876 0.621388 0 0 5.37796e+19 0 0 0 4.50224 -1.69282 0.753007 -5.15823 1.86377 0.001
-5.44906 0.551875 0 0 5.06475e+19 0 0 0 4.50232 -1.68119 0.757627 -5.15061 1.86387 0.001
-5.44846 0.482452 0 0 4.73127e+19 0 0 0 4.50239 -1.66694 0.762234 -5.14306 1.86367 0.001
-5.44686 0.413119 0 0 4.37674e+19 0 0 0 4.50244 -1.65236 0.766866 -5.13552 1.86312 0.001
-5.44436 0.343906 0 0 4.00933e+19 0 0 0 4.50252 -1.63939 0.771488 -5.12807 1.86227 0.001
-5.44086 0.274823 0 0 3.62941e+19 0 0 0 4.50255 -1.62636 0.776134 -5.12062 1.86107 0.001
-5.43646 0.205869 0 0 3.2464e+19 0 0 0 4.50263 -1.61396 0.780774 -5.11325 1.85956 0.001
-5.43106 0.137076 0 0 2.86154e+19 0 0 0 4.50263 -1.60074 0.785436 -5.10587 1.85772 0.001
-5.42486 0.0684482 0 0 2.48868e+19 0 0 0 4.50273 -1.5861 0.790057 -5.09866 1.8556 0.001
-5.41766 6.0148e-16 0 0 2.1241e+19 0 0 0 4.50279 -1.57154 0.794705 -5.09144 1.85313 0.001
-5.40956 -0.0682552 0 0 1.77633e+19 0 0 0 4.50286 -1.55955 0.799347 -5.08429 1.85036 0.001
-5.40056 -0.136306 0 0 1.44875e+19 0 0 0 4.50291 -1.54614 0.803982 -5.0772 1.84728 0.001
-5.39056 -0.20413 0 0 1.14192e+19 0 0 0 4.50289 -1.53214 0.808643 -5.07008 1.84386 0.001
-5.37976 -0.271733 0 0 8.74265e+18 0 0 0 4.50298 -1.51974 0.81327 -5.06312 1.84017 0.001
-5.36806 -0.339086 0 0 6.86717e+18 0 0 0 4.50305 -1.50516 0.817892 -5.05621 1.83617 0.001
-5.35546 -0.406189 0 0 6.78315e+18 0 0 0 4.50313 -1.49349 0.822515 -5.04936 1.83186 0.001
-5.34197 -0.473023 0 0 9.66536e+18 0 0 0 4.50317 -1.47745 0.827133 -5.04254 1.82724 0.001
-5.32757 -0.539566 0 0 1.69238e+19 0 0 0 4.50319 -1.46394 0.831752 -5.03577 1.82232 0.001
-5.31237 -0.605829 0 0 3.14164e+19 0 0 0 4.50327 -1.45245 0.836339 -5.02912 1.81712 0.001
-5.29627 -0.671783 0 0 5.2895e+19 0 0 0 4.50332 -1.43774 0.840928 -5.0225 1.81161 0.001
-5.27927 -0.737426 0 0 6.86504e+19 0 0 0 4.50332 -1.42513 0.845521 -5.0159 1.8058 0.001
-5.26147 -0.80274 0 0 7.29989e+19 0 0 0 4.50338 -1.41119 0.850088 -5.00941 1.79971 0.001
-5.24288 -0.867723 0 0 7.33473e+19 0 0 0 4.50346 -1.39792 0.854627 -5.00302 1.79335 0.001
-5.22338 -0.932357 0 0 7.3296e+19 0 0 0 4.50351 -1.3836 0.859176 -4.99663 1.78668 0.001
-5.20308 -0.99662 0 0 7.3238e+19 0 0 0 4.50354 -1.37079 0.863701 -4.99033 1.77974 0.001
-5.18198 -1.06049 0 0 7.31773e+19 0 0 0 4.50359 -1.35852 0.868206 -4.9841 1.77252 0.001
-5.16008 -1.12409 0 0 7.31151e+19 0 0 0 4.50371 -1.346 0.87269 -4.97798 1.76503 0.001
-5.13729 -1.18718 0 0 7.30521e+19 0 0 0 4.50365 -1.33061 0.877189 -4.9718 1.75723 0.001
-5.11379 -1.24987 0 0 7.29864e+19 0 0 0 4.50372 -1.3193 0.881644 -4.96577 1.74919 0.001
-5.08949 -1.31227 0 0 7.29223e+19 0 0 0 4.50378 -1.30363 0.886077 -4.95982 1.74088 0.001
-5.06449 -1.37416 0 0 7.28568e+19 0 0 0 4.50388 -1.29048 0.890472 -4.95398 1.73233 0.001
-5.0386 -1.43566 0 0 7.27888e+19 0 0 0 4.50388 -1.27741 0.894885 -4.9481 1.72347 0.001
-5.012 -1.49665 0 0 7.27207e+19 0 0 0 4.50392 -1.2633 0.899265 -4.94231 1.71438 0.001
-4.9847 -1.55724 0 0 7.26512e+19 0 0 0 4.50399 -1.25032 0.903602 -4.93665 1.70504 0.001
-4.9566 -1.61744 0 0 7.13245e+19 0 0 0 4.50402 -1.23797 0.90793 -4.93102 1.69543 0.001
-4.92781 -1.67713 0 0 1.79213e+19 0 0 0 4.5041 -1.22622 0.91223 -4.92547 1.68558 0.001
-4.89831 -1.73633 0 0 7.24372e+19 0 0 0 4.50416 -1.21047 0.916498 -4.92 1.67549 0.001
-4.86811 -1.79502 0 0 7.2365e+19 0 0 0 4.5042 -1.19941 0.92074 -4.91459 1.66516 0.001
-4.83712 -1.85331 0 0 7.22897e+19 0 0 0 4.50421 -1.18447 0.924977 -4.9092 1.65456 0.001
-4.80552 -1.91111 0 0 7.22144e+19 0 0 0 4.50432 -1.17066 0.929161 -4.90396 1.64375 0.001
-4.77322 -1.9683 0 0 7.21387e+19 0 0 0 4.50432 -1.15841 0.933329 -4.89872 1.6327 0.001
-4.74023 -2.0251 0 0 7.20625e+19 0 0 0 4.50437 -1.14627 0.937467 -4.89357 1.62141 0.001
-4.70663 -2.08129 0 0 7.19857e+19 0 0 0 4.50446 -1.13109 0.941567 -4.88851 1.60992 0.001
-4.67233 -2.13699 0 0 7.19065e+19 0 0 0 4.50447 -1.11838 0.945646 -4.88349 1.59819 0.001
-4.63744 -2.19218 0 0 7.18275e+19 0 0 0 4.50453 -1.10616 0.949678 -4.87857 1.58626 0.001
-4.60184 -2.24688 0 0 7.17482e+19 0 0 0 4.50457 -1.09395 0.953695 -4.87369 1.57408 0.001
-4.56564 -2.30097 0 0 7.16674e+19 0 0 0 4.50459 -1.08071 0.95768 -4.86886 1.5617 0.001
-4.52885 -2.35456 0 0 7.1587e+19 0 0 0 4.50468 -1.06838 0.961623 -4.86414 1.54911 0.001
-4.49145 -2.40756 0 0 7.15039e+19 0 0 0 4.50469 -1.05339 0.965536 -4.85946 1.53632 0.001
-4.45345 -2.46005 0 0 7.14199e+19 0 0 0 4.50475 -1.04052 0.96941 -4.85487 1.52332 0.001
-4.41486 -2.51195 0 0 7.13351e+19 0 0 0 4.50479 -1.02902 0.97326 -4.85031 1.51012 0.001
-4.37576 -2.56324 0 0 7.12533e+19 0 0 0 4.50484 -1.01523 0.977056 -4.84586 1.49675 0.001
-4.33607 -2.61404 0 0 7.11694e+19 0 0 0 4.5049 -1.00266 0.980817 -4.84148 1.48317 0.001
-4.29577 -2.66423 0 0 7.10825e+19 0 0 0 4.50493 -0.989893 0.984559 -4.83712 1.46939 0.001
-4.25497 -2.71383 0 0 7.09955e+19 0 0 0 4.50495 -0.975504 0.988253 -4.83285 1.45543 0.001
-4.21358 -2.76292 0 0 7.0908e+19 0 0 0 4.50499 -0.963619 0.991915 -4.82864 1.44127 0.001
-4.17178 -2.81132 0 0 7.08239e+19 0 0 0 4.50508 -0.948844 0.995524 -4.82453 1.42698 0.001
-4.12939 -2.85921 0 0 7.07356e+19 0 0 0 4.50512 -0.936294 0.999101 -4.82046 1.41247 0.001
-4.08649 -2.90641 0 0 7.06435e+19 0 0 0 4.50511 -0.92557 1.00266 -4.81641 1.3978 0.001
-4.0431 -2.9531 0 0 7.05562e+19 0 0 0 4.50513 -0.91124 1.00615 -4.81247 1.38296 0.001
-3.9992 -2.9992 0 0 7.04664e+19 0 0 0 4.50519 -0.897515 1.00962 -4.80859 1.36794 0.001
-3.9549 -3.0446 0 0 7.03806e+19 0 0 0 4.50519 -0.88592 1.01304 -4.80476 1.35279 0.001
-3.91011 -3.08949 0 0 7.02859e+19 0 0 0 4.50529 -0.874229 1.01641 -4.80104 1.33747 0.001
-3.86481 -3.13369 0 0 7.02e+19 0 0 0 4.50526 -0.859361 1.01976 -4.7973 1.32198 0.001
-3.81912 -3.17738 0 0 7.0107e+19 0 0 0 4.50535 -0.848692 1.02304 -4.79372 1.30635 0.001
-3.77302 -3.22038 0 0 7.00139e+19 0 0 0 4.50542 -0.83603 1.02629 -4.79018 1.29058 0.001
-3.72643 -3.26277 0 0 6.99248e+19 0 0 0 4.5054 -0.822292 1.0295 -4.78666 1.27464 0.001
-3.67943 -3.30457 0 0 6.98298e+19 0 0 0 4.50548 -0.808142 1.03267 -4.78323 1.25857 0.001
-3.63204 -3.34577 0 0 6.97353e+19 0 0 0 4.50553 -0.795586 1.03578 -4.77988 1.24235 0.001
-3.58424 -3.38626 0 0 6.9643e+19 0 0 0 4.5055 -0.784061 1.03887 -4.77653 1.22601 0.001
-3.53605 -3.42616 0 0 6.95484e+19 0 0 0 4.50552 -0.770985 1.04191 -4.77326 1.20952 0.001
-3.48745 -3.46545 0 0 6.94547e+19 0 0 0 4.50556 -0.757917 1.04491 -4.77006 1.1929 0.001
-3.43846 -3.50415 0 0 6.93628e+19 0 0 0 4.50558 -0.746535 1.04786 -4.76692 1.17614 0.001
-3.38916 -3.54225 0 0 6.92638e+19 0 0 0 4.50567 -0.732811 1.05075 -4.7639 1.15928 0.001
-3.33947 -3.57964 0 0 6.91708e+19 0 0 0 4.50566 -0.720935 1.05361 -4.76086 1.14228 0.001
-3.28947 -3.61644 0 0 6.90728e+19 0 0 0 4.50575 -0.709748 1.05642 -4.75794 1.12518 0.001
-3.23908 -3.65253 0 0 6.89764e+19 0 0 0 4.5057 -0.695303 1.0592 -4.75498 1.10794 0.001
-3.18838 -3.68813 0 0 6.88831e+19 0 0 0 4.50577 -0.684067 1.06191 -4.7522 1.0906 0.001
-3.13729 -3.72303 0 0 6.87834e+19 0 0 0 4.50579 -0.672178 1.0646 -4.74938 1.07312 0.001
-3.08599 -3.75722 0 0 6.86852e+19 0 0 0 4.50577 -0.658001 1.06724 -4.74663 1.05558 0.001
-3.0343 -3.79092 0 0 6.85875e+19 0 0 0 4.50582 -0.646815 1.06981 -4.744 1.03789 0.001
-2.9824 -3.82392 0 0 6.84958e+19 0 0 0 4.50589 -0.633135 1.07234 -4.74142 1.02014 0.001
-2.93011 -3.85621 0 0 6.83901e+19 0 0 0 4.50581 -0.621367 1.07486 -4.73878 1.00226 0.001
-2.87761 -3.88801 0 0 6.82942e+19 0 0 0 4.50596 -0.607928 1.07728 -4.73636 0.9843 0.001
-2.82482 -3.91911 0 0 6.82023e+19 0 0 0 4.50595 -0.59627 1.07968 -4.73392 0.966241 0.001
-2.77172 -3.9496 0 0 6.80996e+19 0 0 0 4.50599 -0.583816 1.08202 -4.73155 0.94808 0.001
-2.71833 -3.9794 0 0 6.79945e+19 0 0 0 4.50596 -0.571487 1.08435 -4.72917 0.929816 0.001
-2.66473 -4.0086 0 0 6.78987e+19 0 0 0 4.50599 -0.560544 1.08661 -4.72689 0.911484 0.001
-2.61094 -4.0372 0 0 6.78036e+19 0 0 0 4.50606 -0.548104 1.0888 -4.72472 0.893083 0.001
-2.55684 -4.06509 0 0 6.77026e+19 0 0 0 4.50607 -0.534132 1.09097 -4.72252 0.87458 0.001
-2.50255 -4.09239 0 0 6.75939e+19 0 0 0 4.5061 -0.523819 1.09309 -4.72041 0.856008 0.001
-2.44796 -4.11909 0 0 6.74893e+19 0 0 0 4.50608 -0.510848 1.09515 -4.71835 0.837334 0.001
-2.39316 -4.14509 0 0 6.73977e+19 0 0 0 4.50605 -0.49835 1.09719 -4.71629 0.818591 0.001
