============================================================ SIMULATION METADATA ============================================================
Spacetime: Wormhole
Image Order [-]: 0
Observer Radial Position [M]: 10000
Observer Inclination [Deg]: 20
Observation Frequency [Hz]: 2.3e+11
Active Simulation Mode: 2
Number Of Photons Per Param Value: 500
Number Of Param Values: 31
------------------------------------------------------- Optically Thin Disk Metadata -------------------------------------------------------
Active disk profile: Power law (rho ~ 1 / r^2)
Disk Opening Angle [tan(angle)]: 0.1
R_0 [M]: 4.5
R_Cutoff [M]: 4.5
Cutoff Scale [M]: 0.4
Emission Model: Exact
Disk Magnetization [-]: 0.01
Magnetic Field Geometry: [0.87, 0, 0.5]
Max Electron Temperature [K]: 6.5e+10
Max Disk Density [g / cm^3]: 500000
------------------------------------------------------------- Hotpost Metadata -------------------------------------------------------------
Hotspot Relative Scale [-]: 0
Hotspot Radial Scale [M]: 1
Hotspot r_center [M]: 8
------------------------------------------------------- Novikov-Thorne Disk Metadata -------------------------------------------------------
Inner Disk Radius [M]: 2
Outer Disk Radius [M]: 25
Image X Coord [M], Image Y Coord [M], Novikov-Thorne Disk Redshift [-], Novikov-Thorne Flux [M^-2], Synchotron Intensity I [Jy/sRad] Synchotron Intensity Q [Jy/sRad] Synchotron Intensity U [Jy/sRad] Synchotron Intensity V [Jy/sRad] Source r Coord [M], Source phi Coord [Rad], Radial Momentum (covariant), Theta Momentum (covariant), Phi Momentum (covariant), Spin Parameter, Redshift Parameter
-0.0451445 7.15618 0 0 1.84618e+19 0 0 0 5.99438 -3.13643 -0.0640934 -7.15703 0.0154419 0.01 0.01
-0.135426 7.15498 0 0 1.85967e+19 0 0 0 5.99433 -3.12461 -0.0640494 -7.15683 0.0463232 0.01 0.01
-0.225687 7.15278 0 0 1.87299e+19 0 0 0 5.9944 -3.11276 -0.0639628 -7.15664 0.0771974 0.01 0.01
-0.315918 7.14938 0 0 1.88642e+19 0 0 0 5.9944 -3.10091 -0.0638235 -7.15626 0.108061 0.01 0.01
-0.406089 7.14489 0 0 1.89987e+19 0 0 0 5.99443 -3.08912 -0.063637 -7.15578 0.138905 0.01 0.01
-0.49621 7.13929 0 0 1.91328e+19 0 0 0 5.99447 -3.07717 -0.0634025 -7.15521 0.169731 0.01 0.01
-0.586251 7.13259 0 0 1.92666e+19 0 0 0 5.99455 -3.06546 -0.0631208 -7.15455 0.20053 0.01 0.01
-0.676202 7.12469 0 0 1.94023e+19 0 0 0 5.99453 -3.05351 -0.0627855 -7.15368 0.231298 0.01 0.01
-0.766053 7.11569 0 0 1.95377e+19 0 0 0 5.99455 -3.0417 -0.0624029 -7.15272 0.262032 0.01 0.01
-0.855774 7.10559 0 0 1.96726e+19 0 0 0 5.99459 -3.02969 -0.0619727 -7.15166 0.292721 0.01 0.01
-0.945375 7.09439 0 0 1.98071e+19 0 0 0 5.99464 -3.01791 -0.0614943 -7.15051 0.32337 0.01 0.01
-1.0348 7.08209 0 0 1.99413e+19 0 0 0 5.9947 -3.00607 -0.0609682 -7.14925 0.353957 0.01 0.01
-1.12409 7.06859 0 0 2.00776e+19 0 0 0 5.99469 -2.99416 -0.0603888 -7.1478 0.384499 0.01 0.01
-1.21328 7.05399 0 0 2.02129e+19 0 0 0 5.9947 -2.98235 -0.0597614 -7.14625 0.415007 0.01 0.01
-1.30217 7.0384 0 0 2.03463e+19 0 0 0 5.99482 -2.97066 -0.0590913 -7.14468 0.445413 0.01 0.01
-1.39096 7.0216 0 0 2.04806e+19 0 0 0 5.99486 -2.95873 -0.0583674 -7.14293 0.475784 0.01 0.01
-1.47945 7.0037 0 0 2.06156e+19 0 0 0 5.99488 -2.94658 -0.057595 -7.14106 0.506053 0.01 0.01
-1.56774 6.9847 0 0 2.07494e+19 0 0 0 5.99493 -2.93495 -0.0567744 -7.13909 0.536253 0.01 0.01
-1.65583 6.9646 0 0 2.08831e+19 0 0 0 5.99499 -2.92311 -0.0559054 -7.13701 0.566385 0.01 0.01
-1.74363 6.94341 0 0 2.1017e+19 0 0 0 5.99503 -2.91087 -0.0549871 -7.13482 0.596415 0.01 0.01
-1.83112 6.92111 0 0 2.115e+19 0 0 0 5.99508 -2.89931 -0.0540204 -7.13251 0.626341 0.01 0.01
-1.91841 6.89771 0 0 2.12829e+19 0 0 0 5.99513 -2.88708 -0.0530044 -7.1301 0.6562 0.01 0.01
-2.0053 6.87321 0 0 2.14157e+19 0 0 0 5.99515 -2.87502 -0.0519393 -7.12755 0.685921 0.01 0.01
-2.09199 6.84762 0 0 2.15484e+19 0 0 0 5.9952 -2.86286 -0.0508254 -7.12492 0.715575 0.01 0.01
-2.17828 6.82102 0 0 2.16781e+19 0 0 0 5.99531 -2.85148 -0.0496671 -7.12224 0.745091 0.01 0.01
-2.26427 6.79322 0 0 2.18105e+19 0 0 0 5.99531 -2.83939 -0.0484538 -7.11935 0.774505 0.01 0.01
-2.34986 6.76442 0 0 2.19409e+19 0 0 0 5.99538 -2.82747 -0.0471961 -7.11642 0.803782 0.01 0.01
-2.43516 6.73453 0 0 2.20698e+19 0 0 0 5.99545 -2.81485 -0.0458888 -7.11339 0.832956 0.01 0.01
-2.52005 6.70353 0 0 2.22003e+19 0 0 0 5.99549 -2.80362 -0.0445311 -7.11022 0.861993 0.01 0.01
-2.60454 6.67153 0 0 2.23279e+19 0 0 0 5.99558 -2.79144 -0.0431285 -7.10701 0.890894 0.01 0.01
-2.68863 6.63844 0 0 2.24555e+19 0 0 0 5.99565 -2.77879 -0.0416755 -7.10366 0.919658 0.01 0.01
-2.77222 6.60424 0 0 2.25837e+19 0 0 0 5.99565 -2.76751 -0.0401714 -7.10016 0.948251 0.01 0.01
-2.85551 6.56904 0 0 2.27096e+19 0 0 0 5.99576 -2.75465 -0.0386225 -7.09666 0.976741 0.01 0.01
-2.93831 6.53285 0 0 2.28334e+19 0 0 0 5.9959 -2.74346 -0.0370278 -7.09308 1.00506 0.01 0.01
-3.0206 6.49545 0 0 2.29605e+19 0 0 0 5.99586 -2.73071 -0.0353757 -7.08926 1.03321 0.01 0.01
-3.10239 6.45715 0 0 2.30831e+19 0 0 0 5.99596 -2.71917 -0.0336833 -7.08546 1.06119 0.01 0.01
-3.18378 6.41776 0 0 2.32066e+19 0 0 0 5.99604 -2.70707 -0.0319394 -7.08155 1.08903 0.01 0.01
-3.26467 6.37736 0 0 2.33277e+19 0 0 0 5.99614 -2.69411 -0.0301491 -7.07758 1.1167 0.01 0.01
-3.34497 6.33587 0 0 2.34505e+19 0 0 0 5.99614 -2.68273 -0.0283059 -7.07341 1.14416 0.01 0.01
-3.42476 6.29347 0 0 2.35689e+19 0 0 0 5.99627 -2.67083 -0.0264217 -7.06928 1.17145 0.01 0.01
-3.50405 6.24997 0 0 2.36884e+19 0 0 0 5.99634 -2.65862 -0.0244847 -7.065 1.19858 0.01 0.01
-3.58274 6.20548 0 0 2.38069e+19 0 0 0 5.99638 -2.64602 -0.0224999 -7.06063 1.22549 0.01 0.01
-3.66083 6.15998 0 0 2.39254e+19 0 0 0 5.99643 -2.6332 -0.0204674 -7.05616 1.2522 0.01 0.01
-3.73843 6.11349 0 0 2.40413e+19 0 0 0 5.99651 -2.62085 -0.0183875 -7.05164 1.27874 0.01 0.01
-3.81542 6.06609 0 0 2.41533e+19 0 0 0 5.99667 -2.60886 -0.0162649 -7.04712 1.30508 0.01 0.01
-3.89171 6.0176 0 0 2.42693e+19 0 0 0 5.99668 -2.59679 -0.0140875 -7.04238 1.33118 0.01 0.01
-3.9674 5.9682 0 0 2.43813e+19 0 0 0 5.99677 -2.58462 -0.0118671 -7.03764 1.35707 0.01 0.01
-4.0425 5.91781 0 0 2.44923e+19 0 0 0 5.99685 -2.57186 -0.00959809 -7.03281 1.38275 0.01 0.01
-4.11689 5.86641 0 0 2.46034e+19 0 0 0 5.99688 -2.56072 -0.0072792 -7.02786 1.4082 0.01 0.01
-4.19068 5.81412 0 0 2.47119e+19 0 0 0 5.99699 -2.54715 -0.004917 -7.02291 1.43344 0.01 0.01
-4.26377 5.76092 0 0 2.48174e+19 0 0 0 5.99712 -2.53552 -0.00251047 -7.01792 1.45844 0.01 0.01
-4.33607 5.70653 0 0 2.49302e+19 0 0 0 5.99698 -2.5225 -4.08923e-05 -7.01259 1.48317 0.01 0.01
-4.40856 5.65243 0 0 2.4998e+19 0 0 0 5.9984 -2.51057 0.00239373 -7.00869 1.50797 0.01 0.01
-4.47565 5.59154 0 0 2.52779e+19 0 0 0 5.9921 -2.49824 0.00527018 -6.99738 1.53092 0.01 0.01
-4.54904 5.53855 0 0 2.52357e+19 0 0 0 5.9974 -2.48517 0.0075986 -6.99703 1.55602 0.01 0.01
-4.61854 5.48075 0 0 2.53344e+19 0 0 0 5.99754 -2.47396 0.0102363 -6.99171 1.57979 0.01 0.01
-4.68733 5.42196 0 0 2.54336e+19 0 0 0 5.99764 -2.4617 0.0129251 -6.9863 1.60332 0.01 0.01
-4.75522 5.36236 0 0 2.55315e+19 0 0 0 5.99772 -2.44896 0.0156558 -6.98081 1.62655 0.01 0.01
-4.82242 5.30177 0 0 2.56289e+19 0 0 0 5.99775 -2.43595 0.018438 -6.97523 1.64953 0.01 0.01
-4.88881 5.24038 0 0 2.57237e+19 0 0 0 5.99785 -2.42406 0.0212614 -6.96964 1.67224 0.01 0.01
-4.9544 5.17818 0 0 2.58154e+19 0 0 0 5.99799 -2.41082 0.0241258 -6.96405 1.69468 0.01 0.01
-5.0192 5.11509 0 0 2.59061e+19 0 0 0 5.99812 -2.39869 0.0270375 -6.95839 1.71684 0.01 0.01
-5.08309 5.05109 0 0 2.59977e+19 0 0 0 5.99815 -2.38524 0.0299981 -6.95259 1.73869 0.01 0.01
-5.14619 4.9864 0 0 2.60843e+19 0 0 0 5.99831 -2.37368 0.0329942 -6.94688 1.76028 0.01 0.01
-5.20838 4.92081 0 0 2.61718e+19 0 0 0 5.99838 -2.36057 0.0360394 -6.94103 1.78155 0.01 0.01
-5.26977 4.85441 0 0 2.62562e+19 0 0 0 5.99852 -2.34874 0.0391267 -6.9352 1.80255 0.01 0.01
-5.33017 4.78722 0 0 2.63415e+19 0 0 0 5.99855 -2.33518 0.0422587 -6.92924 1.82321 0.01 0.01
-5.38976 4.71923 0 0 2.64233e+19 0 0 0 5.99867 -2.32218 0.045433 -6.9233 1.84359 0.01 0.01
-5.44846 4.65043 0 0 2.65039e+19 0 0 0 5.99877 -2.30911 0.0486511 -6.91731 1.86367 0.01 0.01
-5.50615 4.58094 0 0 2.65834e+19 0 0 0 5.99885 -2.29619 0.0519087 -6.91128 1.8834 0.01 0.01
-5.56304 4.51065 0 0 2.66593e+19 0 0 0 5.99899 -2.28438 0.0552082 -6.90527 1.90286 0.01 0.01
-5.61884 4.43966 0 0 2.67362e+19 0 0 0 5.99905 -2.27219 0.0585497 -6.89915 1.92195 0.01 0.01
-5.67383 4.36786 0 0 2.68094e+19 0 0 0 5.99918 -2.25925 0.0619336 -6.89306 1.94076 0.01 0.01
-5.72773 4.29547 0 0 2.68818e+19 0 0 0 5.99927 -2.24644 0.0653532 -6.88692 1.95919 0.01 0.01
-5.78072 4.22228 0 0 2.69526e+19 0 0 0 5.99937 -2.23267 0.0688174 -6.88076 1.97732 0.01 0.01
-5.83272 4.14839 0 0 2.70223e+19 0 0 0 5.99946 -2.21972 0.072322 -6.87455 1.99511 0.01 0.01
-5.88371 4.07389 0 0 2.70888e+19 0 0 0 5.99959 -2.20686 0.075861 -6.86837 2.01255 0.01 0.01
-5.93371 3.9987 0 0 2.71543e+19 0 0 0 5.9997 -2.19406 0.0794405 -6.86216 2.02965 0.01 0.01
-5.9827 3.92291 0 0 2.72166e+19 0 0 0 5.99987 -2.18093 0.0830547 -6.85597 2.04641 0.01 0.01
-6.0306 3.84642 0 0 2.72801e+19 0 0 0 5.99994 -2.16819 0.0867117 -6.84968 2.06279 0.01 0.01
-6.07749 3.76922 0 0 2.73421e+19 0 0 0 6 -2.15549 0.0904095 -6.84336 2.07883 0.01 0.01
-6.12339 3.69153 0 0 2.73995e+19 0 0 0 6.00017 -2.14227 0.0941362 -6.83713 2.09453 0.01 0.01
-6.16808 3.61324 0 0 2.74589e+19 0 0 0 6.00021 -2.12977 0.0979022 -6.83078 2.10982 0.01 0.01
-6.21188 3.53435 0 0 2.75125e+19 0 0 0 6.00039 -2.11649 0.101701 -6.82455 2.1248 0.01 0.01
-6.25447 3.45485 0 0 2.75682e+19 0 0 0 6.00045 -2.1036 0.105539 -6.81819 2.13937 0.01 0.01
-6.29607 3.37486 0 0 2.76191e+19 0 0 0 6.00062 -2.09077 0.109407 -6.81193 2.1536 0.01 0.01
-6.33647 3.29437 0 0 2.76706e+19 0 0 0 6.0007 -2.07792 0.113308 -6.8056 2.16742 0.01 0.01
-6.37586 3.21328 0 0 2.77189e+19 0 0 0 6.00085 -2.06463 0.117244 -6.79931 2.18089 0.01 0.01
-6.41406 3.13169 0 0 2.77677e+19 0 0 0 6.00093 -2.05181 0.121215 -6.79296 2.19396 0.01 0.01
-6.45115 3.04959 0 0 2.78144e+19 0 0 0 6.00103 -2.03778 0.125217 -6.78663 2.20665 0.01 0.01
-6.48715 2.9671 0 0 2.78577e+19 0 0 0 6.00118 -2.0246 0.129245 -6.78036 2.21896 0.01 0.01
-6.52205 2.88411 0 0 2.7899e+19 0 0 0 6.00135 -2.01266 0.133304 -6.7741 2.23089 0.01 0.01
-6.55564 2.80062 0 0 2.79436e+19 0 0 0 6.00136 -1.99848 0.137402 -6.7677 2.24239 0.01 0.01
-6.58824 2.71673 0 0 2.79821e+19 0 0 0 6.00152 -1.98528 0.141521 -6.76145 2.25354 0.01 0.01
-6.61964 2.63254 0 0 2.8019e+19 0 0 0 6.00168 -1.97351 0.145663 -6.75522 2.26428 0.01 0.01
-6.64983 2.54785 0 0 2.80565e+19 0 0 0 6.00177 -1.95965 0.14984 -6.74893 2.2746 0.01 0.01
-6.67883 2.46275 0 0 2.80934e+19 0 0 0 6.00184 -1.94561 0.154047 -6.74263 2.28452 0.01 0.01
-6.70673 2.37736 0 0 2.8126e+19 0 0 0 6.002 -1.93403 0.158272 -6.73643 2.29407 0.01 0.01
-6.73343 2.29157 0 0 2.8158e+19 0 0 0 6.00212 -1.91947 0.162526 -6.73021 2.3032 0.01 0.01
-6.75892 2.20558 0 0 2.81879e+19 0 0 0 6.00228 -1.90572 0.166798 -6.72404 2.31192 0.01 0.01
-6.78322 2.11919 0 0 2.82171e+19 0 0 0 6.0024 -1.89317 0.171098 -6.71786 2.32023 0.01 0.01
-6.80632 2.0325 0 0 2.82452e+19 0 0 0 6.00253 -1.88092 0.175422 -6.7117 2.32813 0.01 0.01
-6.82822 1.94551 0 0 2.82717e+19 0 0 0 6.00265 -1.86728 0.179767 -6.70555 2.33562 0.01 0.01
-6.84891 1.85831 0 0 2.82962e+19 0 0 0 6.00279 -1.85382 0.184131 -6.69946 2.3427 0.01 0.01
-6.86831 1.77092 0 0 2.83217e+19 0 0 0 6.00287 -1.83965 0.188515 -6.69332 2.34934 0.01 0.01
-6.88661 1.68323 0 0 2.83428e+19 0 0 0 6.00303 -1.82651 0.192918 -6.68729 2.3556 0.01 0.01
-6.90361 1.59534 0 0 2.8365e+19 0 0 0 6.00313 -1.81443 0.197343 -6.68122 2.36141 0.01 0.01
-6.91941 1.50735 0 0 2.83848e+19 0 0 0 6.00325 -1.80116 0.201779 -6.67522 2.36681 0.01 0.01
-6.93401 1.41906 0 0 2.84032e+19 0 0 0 6.00338 -1.78687 0.206238 -6.66923 2.37181 0.01 0.01
-6.94731 1.33077 0 0 2.84218e+19 0 0 0 6.00347 -1.77407 0.210707 -6.66325 2.37636 0.01 0.01
-6.9595 1.24228 0 0 2.84356e+19 0 0 0 6.00367 -1.76054 0.215188 -6.6574 2.38053 0.01 0.01
-6.9703 1.15358 0 0 2.84536e+19 0 0 0 6.0037 -1.7473 0.219696 -6.65142 2.38422 0.01 0.01
-6.98 1.06489 0 0 2.8466e+19 0 0 0 6.00386 -1.73301 0.224205 -6.6456 2.38754 0.01 0.01
-6.9884 0.976162 0 0 2.84791e+19 0 0 0 6.00397 -1.72083 0.228726 -6.63977 2.39041 0.01 0.01
-6.9956 0.887341 0 0 2.84902e+19 0 0 0 6.0041 -1.70734 0.233258 -6.63399 2.39288 0.01 0.01
-7.0016 0.79847 0 0 2.84991e+19 0 0 0 6.00427 -1.69235 0.2378 -6.62829 2.39493 0.01 0.01
-7.0063 0.709589 0 0 2.85088e+19 0 0 0 6.00437 -1.6797 0.242351 -6.62256 2.39654 0.01 0.01
-7.0098 0.620708 0 0 2.85165e+19 0 0 0 6.0045 -1.66567 0.246909 -6.6169 2.39773 0.01 0.01
-7.0121 0.531837 0 0 2.85222e+19 0 0 0 6.00467 -1.6523 0.251473 -6.6113 2.39852 0.01 0.01
-7.0131 0.443006 0 0 2.85289e+19 0 0 0 6.00476 -1.63952 0.256044 -6.60569 2.39886 0.01 0.01
-7.0129 0.354225 0 0 2.85337e+19 0 0 0 6.00489 -1.62733 0.260621 -6.60014 2.39879 0.01 0.01
-7.0115 0.265513 0 0 2.85367e+19 0 0 0 6.00504 -1.61241 0.265198 -6.59466 2.39831 0.01 0.01
-7.0088 0.176892 0 0 2.8541e+19 0 0 0 6.00512 -1.60033 0.269782 -6.58915 2.39739 0.01 0.01
-7.005 0.0883852 0 0 2.85406e+19 0 0 0 6.00532 -1.5871 0.274362 -6.5838 2.39609 0.01 0.01
-6.9999 7.77142e-16 0 0 2.85417e+19 0 0 0 6.00542 -1.57283 0.278944 -6.57841 2.39435 0.01 0.01
-6.9936 -0.0882412 0 0 2.85414e+19 0 0 0 6.00555 -1.55881 0.283527 -6.57308 2.39219 0.01 0.01
-6.9861 -0.176322 0 0 2.85398e+19 0 0 0 6.00568 -1.54555 0.288108 -6.56781 2.38963 0.01 0.01
-6.9773 -0.264224 0 0 2.85402e+19 0 0 0 6.00573 -1.53277 0.292691 -6.56249 2.38662 0.01 0.01
-6.9674 -0.351925 0 0 2.85365e+19 0 0 0 6.00588 -1.51779 0.297266 -6.55732 2.38323 0.01 0.01
-6.9563 -0.439416 0 0 2.85321e+19 0 0 0 6.00602 -1.50627 0.301836 -6.55219 2.37943 0.01 0.01
-6.94401 -0.526677 0 0 2.8527e+19 0 0 0 6.00615 -1.4924 0.3064 -6.5471 2.37523 0.01 0.01
-6.93051 -0.613689 0 0 2.85215e+19 0 0 0 6.00626 -1.47818 0.310959 -6.54205 2.37061 0.01 0.01
-6.91581 -0.70043 0 0 2.85157e+19 0 0 0 6.00636 -1.46508 0.315512 -6.53702 2.36558 0.01 0.01
-6.90001 -0.786891 0 0 2.85068e+19 0 0 0 6.00653 -1.45224 0.320053 -6.53211 2.36018 0.01 0.01
-6.88301 -0.873053 0 0 2.84982e+19 0 0 0 6.00666 -1.43772 0.324585 -6.52722 2.35436 0.01 0.01
-6.86481 -0.958904 0 0 2.84898e+19 0 0 0 6.00676 -1.42404 0.32911 -6.52235 2.34814 0.01 0.01
-6.84552 -1.0444 0 0 2.84793e+19 0 0 0 6.0069 -1.41233 0.333619 -6.51756 2.34154 0.01 0.01
-6.82502 -1.12959 0 0 2.84692e+19 0 0 0 6.00699 -1.39768 0.33812 -6.51278 2.33453 0.01 0.01
-6.80342 -1.21438 0 0 2.84575e+19 0 0 0 6.00711 -1.38503 0.342604 -6.50808 2.32714 0.01 0.01
-6.78072 -1.29877 0 0 2.84444e+19 0 0 0 6.00727 -1.37051 0.347073 -6.50346 2.31938 0.01 0.01
-6.75682 -1.38286 0 0 2.84319e+19 0 0 0 6.00736 -1.3583 0.351533 -6.49883 2.3112 0.01 0.01
-6.73193 -1.46645 0 0 2.84162e+19 0 0 0 6.00753 -1.34525 0.355967 -6.49434 2.30268 0.01 0.01
-6.70583 -1.54964 0 0 2.84023e+19 0 0 0 6.00762 -1.33239 0.360393 -6.48981 2.29376 0.01 0.01
-6.67863 -1.63244 0 0 2.83874e+19 0 0 0 6.00772 -1.31698 0.364801 -6.48534 2.28446 0.01 0.01
-6.65043 -1.71473 0 0 2.83697e+19 0 0 0 6.00787 -1.30432 0.369182 -6.48099 2.27481 0.01 0.01
-6.62114 -1.79652 0 0 2.83523e+19 0 0 0 6.008 -1.29046 0.373546 -6.47666 2.26479 0.01 0.01
-6.59074 -1.87791 0 0 2.83343e+19 0 0 0 6.00811 -1.27793 0.377892 -6.47236 2.25439 0.01 0.01
-6.55934 -1.9587 0 0 2.83151e+19 0 0 0 6.00825 -1.26363 0.382213 -6.46815 2.24365 0.01 0.01
-6.52685 -2.0391 0 0 2.82955e+19 0 0 0 6.00835 -1.25175 0.386515 -6.46396 2.23254 0.01 0.01
-6.49335 -2.11889 0 0 2.82751e+19 0 0 0 6.00848 -1.23902 0.390792 -6.45983 2.22108 0.01 0.01
-6.45875 -2.19818 0 0 2.82556e+19 0 0 0 6.00854 -1.22388 0.395051 -6.4557 2.20924 0.01 0.01
-6.42326 -2.27687 0 0 2.8233e+19 0 0 0 6.00868 -1.21072 0.399276 -6.4517 2.1971 0.01 0.01
-6.38676 -2.35506 0 0 2.82087e+19 0 0 0 6.00884 -1.19822 0.403475 -6.44777 2.18462 0.01 0.01
-6.34916 -2.43266 0 0 2.81871e+19 0 0 0 6.00889 -1.1861 0.407657 -6.44379 2.17176 0.01 0.01
-6.31067 -2.50965 0 0 2.81628e+19 0 0 0 6.00901 -1.17293 0.411805 -6.43992 2.15859 0.01 0.01
-6.27117 -2.58604 0 0 2.81388e+19 0 0 0 6.00909 -1.15935 0.415928 -6.43607 2.14508 0.01 0.01
-6.23078 -2.66183 0 0 2.81123e+19 0 0 0 6.00922 -1.14466 0.420019 -6.43233 2.13126 0.01 0.01
-6.18948 -2.73703 0 0 2.80837e+19 0 0 0 6.00939 -1.13251 0.424076 -6.42867 2.11714 0.01 0.01
-6.14719 -2.81152 0 0 2.80574e+19 0 0 0 6.00947 -1.12019 0.428109 -6.42498 2.10267 0.01 0.01
-6.10389 -2.88551 0 0 2.80301e+19 0 0 0 6.00955 -1.10699 0.432118 -6.42134 2.08786 0.01 0.01
-6.05979 -2.9587 0 0 2.80016e+19 0 0 0 6.00964 -1.09399 0.436086 -6.41777 2.07278 0.01 0.01
-6.0148 -3.0313 0 0 2.79716e+19 0 0 0 6.00975 -1.07991 0.440022 -6.41426 2.05739 0.01 0.01
-5.9689 -3.10329 0 0 2.79401e+19 0 0 0 6.00989 -1.06651 0.44393 -6.41083 2.04169 0.01 0.01
-5.92221 -3.17448 0 0 2.79082e+19 0 0 0 6.01001 -1.05362 0.447797 -6.40744 2.02572 0.01 0.01
-5.87461 -3.24508 0 0 2.78751e+19 0 0 0 6.01015 -1.0402 0.451635 -6.40412 2.00944 0.01 0.01
-5.82612 -3.31487 0 0 2.78443e+19 0 0 0 6.01017 -1.02724 0.45544 -6.40074 1.99285 0.01 0.01
-5.77682 -3.38406 0 0 2.78101e+19 0 0 0 6.01029 -1.01569 0.459211 -6.3975 1.97599 0.01 0.01
-5.72673 -3.45245 0 0 2.77763e+19 0 0 0 6.01036 -1.00184 0.462941 -6.39427 1.95885 0.01 0.01
-5.67583 -3.52015 0 0 2.77411e+19 0 0 0 6.01045 -0.988279 0.466637 -6.3911 1.94144 0.01 0.01
-5.62414 -3.58714 0 0 2.77047e+19 0 0 0 6.01055 -0.975979 0.470296 -6.388 1.92376 0.01 0.01
-5.57174 -3.65343 0 0 2.7665e+19 0 0 0 6.01074 -0.962312 0.473914 -6.38503 1.90584 0.01 0.01
-5.51845 -3.71893 0 0 2.76286e+19 0 0 0 6.01078 -0.950812 0.477502 -6.38196 1.88761 0.01 0.01
-5.46455 -3.78362 0 0 2.75889e+19 0 0 0 6.01091 -0.937115 0.481041 -6.37904 1.86917 0.01 0.01
-5.40976 -3.84762 0 0 2.75508e+19 0 0 0 6.01095 -0.925102 0.484553 -6.37608 1.85043 0.01 0.01
-5.35436 -3.91081 0 0 2.75097e+19 0 0 0 6.01106 -0.910875 0.488016 -6.37323 1.83148 0.01 0.01
-5.29817 -3.9733 0 0 2.74682e+19 0 0 0 6.01116 -0.899452 0.491446 -6.37042 1.81226 0.01 0.01
-5.24138 -4.035 0 0 2.74242e+19 0 0 0 6.0113 -0.885333 0.494828 -6.36771 1.79284 0.01 0.01
-5.18378 -4.09589 0 0 2.73822e+19 0 0 0 6.01136 -0.872218 0.498178 -6.36495 1.77314 0.01 0.01
-5.12559 -4.15598 0 0 2.73379e+19 0 0 0 6.01145 -0.85981 0.501481 -6.36229 1.75323 0.01 0.01
-5.06669 -4.21528 0 0 2.72938e+19 0 0 0 6.01152 -0.846805 0.504747 -6.35964 1.73308 0.01 0.01
-5.0072 -4.27377 0 0 2.72478e+19 0 0 0 6.01162 -0.835424 0.507967 -6.35707 1.71273 0.01 0.01
-4.94701 -4.33147 0 0 2.72022e+19 0 0 0 6.01167 -0.822544 0.511149 -6.35451 1.69214 0.01 0.01
-4.88621 -4.38846 0 0 2.71527e+19 0 0 0 6.01181 -0.809294 0.514285 -6.35207 1.67135 0.01 0.01
-4.82482 -4.44446 0 0 2.71065e+19 0 0 0 6.01182 -0.797328 0.517383 -6.34957 1.65035 0.01 0.01
-4.76282 -4.49975 0 0 2.70569e+19 0 0 0 6.01191 -0.784142 0.520434 -6.34718 1.62914 0.01 0.01
-4.70023 -4.55424 0 0 2.70062e+19 0 0 0 6.01201 -0.771853 0.523443 -6.34484 1.60773 0.01 0.01
-4.63704 -4.60794 0 0 2.69545e+19 0 0 0 6.01211 -0.758118 0.526409 -6.34255 1.58612 0.01 0.01
-4.57334 -4.66073 0 0 2.69026e+19 0 0 0 6.01219 -0.74571 0.529329 -6.34029 1.56433 0.01 0.01
-4.50905 -4.71273 0 0 2.685e+19 0 0 0 6.01225 -0.73381 0.532206 -6.33806 1.54234 0.01 0.01
-4.44426 -4.76382 0 0 2.67974e+19 0 0 0 6.01229 -0.720371 0.53504 -6.33585 1.52018 0.01 0.01
-4.37886 -4.81422 0 0 2.67421e+19 0 0 0 6.01238 -0.707764 0.537831 -6.33373 1.49781 0.01 0.01
-4.31307 -4.86371 0 0 2.66854e+19 0 0 0 6.01249 -0.695596 0.54057 -6.33168 1.4753 0.01 0.01
-4.24668 -4.91231 0 0 2.6631e+19 0 0 0 6.01249 -0.683219 0.543271 -6.32957 1.45259 0.01 0.01
-4.17988 -4.9601 0 0 2.65731e+19 0 0 0 6.01258 -0.671263 0.545922 -6.32758 1.42975 0.01 0.01
-4.11259 -5.0071 0 0 2.65136e+19 0 0 0 6.01269 -0.657868 0.548529 -6.32566 1.40673 0.01 0.01
-4.0447 -5.05319 0 0 2.64568e+19 0 0 0 6.01267 -0.645655 0.551096 -6.32366 1.38351 0.01 0.01
-3.9765 -5.09849 0 0 2.63953e+19 0 0 0 6.01278 -0.634005 0.553609 -6.32182 1.36018 0.01 0.01
-3.90781 -5.14299 0 0 2.63325e+19 0 0 0 6.01291 -0.621652 0.556078 -6.32004 1.33668 0.01 0.01
