============================================================ SIMULATION METADATA ============================================================
Spacetime: Wormhole
Image Order [-]: 0
Observer Radial Position [M]: 10000
Observer Inclination [Deg]: 20
Observation Frequency [Hz]: 2.3e+11
Active Simulation Mode: 2
Number Of Photons Per Param Value: 500
Number Of Param Values: 31
------------------------------------------------------- Optically Thin Disk Metadata -------------------------------------------------------
Active disk profile: Power law (rho ~ 1 / r^2)
Disk Opening Angle [tan(angle)]: 0.1
R_0 [M]: 4.5
R_Cutoff [M]: 4.5
Cutoff Scale [M]: 0.4
Emission Model: Exact
Disk Magnetization [-]: 0.01
Magnetic Field Geometry: [0.87, 0, 0.5]
Max Electron Temperature [K]: 6.5e+10
Max Disk Density [g / cm^3]: 500000
------------------------------------------------------------- Hotpost Metadata -------------------------------------------------------------
Hotspot Relative Scale [-]: 0
Hotspot Radial Scale [M]: 1
Hotspot r_center [M]: 8
------------------------------------------------------- Novikov-Thorne Disk Metadata -------------------------------------------------------
Inner Disk Radius [M]: 2
Outer Disk Radius [M]: 25
Image X Coord [M], Image Y Coord [M], Novikov-Thorne Disk Redshift [-], Novikov-Thorne Flux [M^-2], Synchotron Intensity I [Jy/sRad] Synchotron Intensity Q [Jy/sRad] Synchotron Intensity U [Jy/sRad] Synchotron Intensity V [Jy/sRad] Source r Coord [M], Source phi Coord [Rad], Radial Momentum (covariant), Theta Momentum (covariant), Phi Momentum (covariant), Spin Parameter, Redshift Parameter
-0.0361084 5.72373 0 0 7.12211e+19 0 0 0 4.49759 -3.13698 0.0406331 -5.7244 0.012351 0.01 0.01
-0.108319 5.72283 0 0 7.13976e+19 0 0 0 4.49764 -3.12514 0.0406642 -5.72431 0.037051 0.01 0.01
-0.180512 5.72103 0 0 7.15728e+19 0 0 0 4.4977 -3.11329 0.0407427 -5.72411 0.0617449 0.01 0.01
-0.252675 5.71823 0 0 7.17505e+19 0 0 0 4.49769 -3.10141 0.0408788 -5.72373 0.0864285 0.01 0.01
-0.324798 5.71463 0 0 7.19229e+19 0 0 0 4.49778 -3.08955 0.0410522 -5.72335 0.111098 0.01 0.01
-0.39687 5.71003 0 0 7.20982e+19 0 0 0 4.49779 -3.07776 0.041283 -5.72277 0.135751 0.01 0.01
-0.468873 5.70453 0 0 7.2272e+19 0 0 0 4.49781 -3.06595 0.0415615 -5.72209 0.16038 0.01 0.01
-0.540806 5.69813 0 0 7.24443e+19 0 0 0 4.49786 -3.05402 0.0418878 -5.72132 0.184985 0.01 0.01
-0.612649 5.69083 0 0 7.26152e+19 0 0 0 4.49792 -3.04212 0.0422618 -5.72045 0.209559 0.01 0.01
-0.684392 5.68253 0 0 7.27884e+19 0 0 0 4.49788 -3.03037 0.0426935 -5.71938 0.234099 0.01 0.01
-0.756024 5.67343 0 0 7.29572e+19 0 0 0 4.49797 -3.01861 0.0431634 -5.71831 0.258601 0.01 0.01
-0.827537 5.66333 0 0 7.31279e+19 0 0 0 4.49796 -3.00648 0.0436913 -5.71704 0.283063 0.01 0.01
-0.89891 5.65243 0 0 7.32937e+19 0 0 0 4.49805 -2.99479 0.0442574 -5.71577 0.307476 0.01 0.01
-0.970133 5.64054 0 0 7.3462e+19 0 0 0 4.49806 -2.98272 0.0448822 -5.7143 0.331838 0.01 0.01
-1.0412 5.62774 0 0 7.36289e+19 0 0 0 4.49807 -2.97076 0.0455555 -5.71272 0.356146 0.01 0.01
-1.11209 5.61404 0 0 7.37946e+19 0 0 0 4.49809 -2.95886 0.0462775 -5.71104 0.380395 0.01 0.01
-1.18278 5.59954 0 0 7.39562e+19 0 0 0 4.4982 -2.947 0.0470386 -5.70935 0.404576 0.01 0.01
-1.25337 5.58404 0 0 7.41192e+19 0 0 0 4.49823 -2.93558 0.047858 -5.70747 0.428722 0.01 0.01
-1.32367 5.56764 0 0 7.42819e+19 0 0 0 4.49823 -2.92315 0.0487275 -5.70546 0.452766 0.01 0.01
-1.39376 5.55044 0 0 7.44404e+19 0 0 0 4.49833 -2.91135 0.0496365 -5.70344 0.476742 0.01 0.01
-1.46365 5.53225 0 0 7.46009e+19 0 0 0 4.49834 -2.89931 0.0506051 -5.70122 0.500649 0.01 0.01
-1.53335 5.51315 0 0 7.476e+19 0 0 0 4.49835 -2.88731 0.0516232 -5.6989 0.524488 0.01 0.01
-1.60274 5.49325 0 0 7.49159e+19 0 0 0 4.49842 -2.87567 0.052682 -5.69654 0.548224 0.01 0.01
-1.67183 5.47245 0 0 7.50709e+19 0 0 0 4.49847 -2.86355 0.0537922 -5.69406 0.571858 0.01 0.01
-1.74073 5.45075 0 0 7.52246e+19 0 0 0 4.49853 -2.85156 0.0549521 -5.69147 0.595423 0.01 0.01
-1.80922 5.42816 0 0 7.5379e+19 0 0 0 4.49853 -2.83942 0.056165 -5.68874 0.618851 0.01 0.01
-1.87751 5.40476 0 0 7.55287e+19 0 0 0 4.49863 -2.82796 0.0574177 -5.686 0.642211 0.01 0.01
-1.94551 5.38036 0 0 7.56812e+19 0 0 0 4.49861 -2.81584 0.058732 -5.68304 0.665469 0.01 0.01
-2.0132 5.35526 0 0 7.58268e+19 0 0 0 4.49876 -2.80357 0.0600782 -5.68016 0.688623 0.01 0.01
-2.08049 5.32917 0 0 7.59756e+19 0 0 0 4.49876 -2.792 0.0614878 -5.67702 0.711641 0.01 0.01
-2.14749 5.30227 0 0 7.61211e+19 0 0 0 4.49883 -2.77947 0.0629396 -5.67386 0.734557 0.01 0.01
-2.21408 5.27447 0 0 7.62669e+19 0 0 0 4.49884 -2.76725 0.0644453 -5.67055 0.757335 0.01 0.01
-2.28027 5.24588 0 0 7.64102e+19 0 0 0 4.49888 -2.75576 0.0659952 -5.66719 0.779977 0.01 0.01
-2.34617 5.21638 0 0 7.65526e+19 0 0 0 4.4989 -2.74341 0.0675973 -5.66371 0.802516 0.01 0.01
-2.41166 5.18608 0 0 7.66923e+19 0 0 0 4.49897 -2.7312 0.0692441 -5.66018 0.824918 0.01 0.01
-2.47675 5.15498 0 0 7.68294e+19 0 0 0 4.49906 -2.71938 0.0709355 -5.65659 0.847184 0.01 0.01
-2.54145 5.12299 0 0 7.69668e+19 0 0 0 4.49911 -2.70742 0.0726818 -5.65286 0.869313 0.01 0.01
-2.60574 5.09019 0 0 7.71016e+19 0 0 0 4.49918 -2.69512 0.0744729 -5.64907 0.891304 0.01 0.01
-2.66953 5.05649 0 0 7.72379e+19 0 0 0 4.49917 -2.6826 0.0763216 -5.64511 0.913125 0.01 0.01
-2.73293 5.0221 0 0 7.73685e+19 0 0 0 4.49928 -2.6704 0.0782056 -5.64119 0.934809 0.01 0.01
-2.79582 4.9868 0 0 7.75008e+19 0 0 0 4.49928 -2.65851 0.0801472 -5.63709 0.956323 0.01 0.01
-2.85831 4.9507 0 0 7.76303e+19 0 0 0 4.49934 -2.64624 0.0821345 -5.63295 0.977699 0.01 0.01
-2.92031 4.91381 0 0 7.77584e+19 0 0 0 4.49938 -2.63369 0.0841702 -5.62872 0.998904 0.01 0.01
-2.9818 4.87621 0 0 7.78823e+19 0 0 0 4.49951 -2.62221 0.0862444 -5.62449 1.01994 0.01 0.01
-3.0428 4.83772 0 0 7.80076e+19 0 0 0 4.49953 -2.61028 0.088377 -5.62009 1.0408 0.01 0.01
-3.10329 4.79842 0 0 7.81315e+19 0 0 0 4.49955 -2.59782 0.0905584 -5.6156 1.06149 0.01 0.01
-3.16318 4.75842 0 0 7.82528e+19 0 0 0 4.49959 -2.58518 0.0927815 -5.61108 1.08198 0.01 0.01
-3.22268 4.71763 0 0 7.83711e+19 0 0 0 4.49969 -2.57243 0.0950513 -5.60652 1.10233 0.01 0.01
-3.28157 4.67603 0 0 7.84896e+19 0 0 0 4.49973 -2.56027 0.097373 -5.60183 1.12248 0.01 0.01
-3.33987 4.63374 0 0 7.86056e+19 0 0 0 4.49979 -2.54862 0.0997376 -5.59711 1.14242 0.01 0.01
-3.39766 4.59064 0 0 7.87199e+19 0 0 0 4.49985 -2.53629 0.102152 -5.59231 1.16218 0.01 0.01
-3.45485 4.54685 0 0 7.88319e+19 0 0 0 4.49993 -2.52316 0.104609 -5.58747 1.18175 0.01 0.01
-3.51145 4.50225 0 0 7.89439e+19 0 0 0 4.49995 -2.5111 0.107119 -5.58251 1.20111 0.01 0.01
-3.56744 4.45695 0 0 7.90536e+19 0 0 0 4.5 -2.4995 0.109673 -5.57751 1.22026 0.01 0.01
-3.62284 4.41096 0 0 7.91607e+19 0 0 0 4.50006 -2.48628 0.11227 -5.57247 1.23921 0.01 0.01
-3.67763 4.36416 0 0 7.92678e+19 0 0 0 4.50008 -2.47351 0.114921 -5.56731 1.25795 0.01 0.01
-3.73183 4.31677 0 0 7.93701e+19 0 0 0 4.5002 -2.46067 0.117606 -5.5622 1.27649 0.01 0.01
-3.78532 4.26857 0 0 7.94741e+19 0 0 0 4.5002 -2.44845 0.120349 -5.55692 1.29479 0.01 0.01
-3.83822 4.21978 0 0 7.95733e+19 0 0 0 4.50031 -2.43559 0.123126 -5.55169 1.31288 0.01 0.01
-3.89041 4.17028 0 0 7.96719e+19 0 0 0 4.50036 -2.42419 0.125951 -5.54637 1.33073 0.01 0.01
-3.94201 4.11999 0 0 7.97701e+19 0 0 0 4.50038 -2.41071 0.128831 -5.54095 1.34838 0.01 0.01
-3.9929 4.06919 0 0 7.98633e+19 0 0 0 4.5005 -2.39933 0.13174 -5.53558 1.36579 0.01 0.01
-4.0431 4.0176 0 0 7.9958e+19 0 0 0 4.50052 -2.38677 0.134707 -5.53007 1.38296 0.01 0.01
-4.09259 3.9655 0 0 8.00478e+19 0 0 0 4.50064 -2.3734 0.137704 -5.52461 1.39989 0.01 0.01
-4.14139 3.91261 0 0 8.01389e+19 0 0 0 4.50065 -2.36039 0.140759 -5.519 1.41658 0.01 0.01
-4.18938 3.85921 0 0 8.02273e+19 0 0 0 4.50069 -2.348 0.143849 -5.51339 1.433 0.01 0.01
-4.23678 3.80512 0 0 8.03128e+19 0 0 0 4.50078 -2.33508 0.146984 -5.50777 1.44921 0.01 0.01
-4.28337 3.75042 0 0 8.03976e+19 0 0 0 4.50082 -2.32262 0.150163 -5.50207 1.46515 0.01 0.01
-4.32927 3.69513 0 0 8.04795e+19 0 0 0 4.5009 -2.30977 0.153383 -5.49637 1.48084 0.01 0.01
-4.37436 3.63924 0 0 8.05607e+19 0 0 0 4.50094 -2.29808 0.156647 -5.4906 1.49627 0.01 0.01
-4.41866 3.58284 0 0 8.06395e+19 0 0 0 4.501 -2.28451 0.159946 -5.48483 1.51142 0.01 0.01
-4.46225 3.52575 0 0 8.07172e+19 0 0 0 4.50104 -2.27146 0.163296 -5.47899 1.52633 0.01 0.01
-4.50505 3.46815 0 0 8.07922e+19 0 0 0 4.50111 -2.25868 0.166681 -5.47315 1.54097 0.01 0.01
-4.54705 3.41006 0 0 8.08649e+19 0 0 0 4.50119 -2.2459 0.170102 -5.46731 1.55534 0.01 0.01
-4.58834 3.35136 0 0 8.09345e+19 0 0 0 4.50131 -2.23378 0.173564 -5.46148 1.56946 0.01 0.01
-4.62874 3.29207 0 0 8.10056e+19 0 0 0 4.50133 -2.22025 0.177076 -5.45551 1.58328 0.01 0.01
-4.66833 3.23238 0 0 8.10725e+19 0 0 0 4.50141 -2.20827 0.180615 -5.4496 1.59682 0.01 0.01
-4.70713 3.17208 0 0 8.11386e+19 0 0 0 4.50148 -2.19422 0.184201 -5.44364 1.61009 0.01 0.01
-4.74503 3.11139 0 0 8.12031e+19 0 0 0 4.50152 -2.18278 0.187819 -5.43766 1.62306 0.01 0.01
-4.78212 3.05009 0 0 8.12665e+19 0 0 0 4.50154 -2.16975 0.191483 -5.43162 1.63575 0.01 0.01
-4.81842 2.9884 0 0 8.1326e+19 0 0 0 4.50165 -2.15539 0.195175 -5.42565 1.64816 0.01 0.01
-4.85381 2.92621 0 0 8.13853e+19 0 0 0 4.50167 -2.14352 0.198909 -5.4196 1.66027 0.01 0.01
-4.88841 2.86361 0 0 8.14406e+19 0 0 0 4.50179 -2.13066 0.202671 -5.41362 1.6721 0.01 0.01
-4.92211 2.80052 0 0 8.14959e+19 0 0 0 4.50185 -2.11829 0.206476 -5.40757 1.68363 0.01 0.01
-4.9549 2.73703 0 0 8.15496e+19 0 0 0 4.50189 -2.10464 0.210315 -5.40151 1.69485 0.01 0.01
-4.9869 2.67313 0 0 8.15993e+19 0 0 0 4.50201 -2.09089 0.214181 -5.39551 1.70579 0.01 0.01
-5.0179 2.60884 0 0 8.165e+19 0 0 0 4.50202 -2.07859 0.218088 -5.38941 1.71639 0.01 0.01
-5.0481 2.54415 0 0 8.16968e+19 0 0 0 4.50212 -2.06436 0.222023 -5.38338 1.72672 0.01 0.01
-5.07729 2.47905 0 0 8.17446e+19 0 0 0 4.50212 -2.05307 0.225999 -5.37725 1.73671 0.01 0.01
-5.10569 2.41356 0 0 8.17884e+19 0 0 0 4.50219 -2.03815 0.230003 -5.37119 1.74642 0.01 0.01
-5.13319 2.34777 0 0 8.18295e+19 0 0 0 4.50229 -2.02565 0.234031 -5.36517 1.75583 0.01 0.01
-5.15968 2.28167 0 0 8.18706e+19 0 0 0 4.50233 -2.01349 0.238093 -5.35909 1.76489 0.01 0.01
-5.18538 2.21518 0 0 8.19077e+19 0 0 0 4.50245 -1.99907 0.242182 -5.35309 1.77368 0.01 0.01
-5.20998 2.14849 0 0 8.19463e+19 0 0 0 4.50244 -1.98677 0.246301 -5.34699 1.7821 0.01 0.01
-5.23378 2.08139 0 0 8.19808e+19 0 0 0 4.50253 -1.97437 0.25045 -5.34097 1.79024 0.01 0.01
-5.25667 2.014 0 0 8.20128e+19 0 0 0 4.50264 -1.96128 0.254624 -5.33499 1.79807 0.01 0.01
-5.27857 1.94641 0 0 8.2044e+19 0 0 0 4.50271 -1.94702 0.258822 -5.32899 1.80556 0.01 0.01
-5.29947 1.87851 0 0 8.20754e+19 0 0 0 4.50272 -1.93418 0.263053 -5.32293 1.81271 0.01 0.01
-5.31947 1.81042 0 0 8.21034e+19 0 0 0 4.50278 -1.92047 0.267303 -5.31694 1.81955 0.01 0.01
-5.33857 1.74203 0 0 8.2129e+19 0 0 0 4.50288 -1.90756 0.271578 -5.31099 1.82608 0.01 0.01
-5.35666 1.67343 0 0 8.21539e+19 0 0 0 4.50292 -1.89392 0.275879 -5.30502 1.83227 0.01 0.01
-5.37386 1.60474 0 0 8.21749e+19 0 0 0 4.50306 -1.88056 0.280189 -5.29915 1.83815 0.01 0.01
-5.38996 1.53575 0 0 8.21988e+19 0 0 0 4.50303 -1.86832 0.284541 -5.29314 1.84366 0.01 0.01
-5.40526 1.46665 0 0 8.22161e+19 0 0 0 4.50316 -1.85359 0.288895 -5.28732 1.84889 0.01 0.01
-5.41946 1.39736 0 0 8.22357e+19 0 0 0 4.50316 -1.84099 0.293282 -5.28138 1.85375 0.01 0.01
-5.43286 1.32787 0 0 8.22494e+19 0 0 0 4.50331 -1.82769 0.297679 -5.2756 1.85833 0.01 0.01
-5.44516 1.25827 0 0 8.22648e+19 0 0 0 4.50333 -1.81392 0.302102 -5.26974 1.86254 0.01 0.01
-5.45655 1.18858 0 0 8.22766e+19 0 0 0 4.50344 -1.79968 0.306536 -5.26397 1.86644 0.01 0.01
-5.46695 1.11889 0 0 8.22871e+19 0 0 0 4.50351 -1.78807 0.310979 -5.25821 1.87 0.01 0.01
-5.47635 1.049 0 0 8.22972e+19 0 0 0 4.50354 -1.77406 0.315449 -5.25244 1.87321 0.01 0.01
-5.48475 0.979012 0 0 8.23063e+19 0 0 0 4.50355 -1.76102 0.319937 -5.24666 1.87608 0.01 0.01
-5.49225 0.909009 0 0 8.23117e+19 0 0 0 4.50362 -1.74723 0.324428 -5.24099 1.87865 0.01 0.01
-5.49885 0.838946 0 0 8.23136e+19 0 0 0 4.50378 -1.7335 0.328927 -5.23541 1.88091 0.01 0.01
-5.50435 0.768863 0 0 8.23173e+19 0 0 0 4.5038 -1.72119 0.333448 -5.22975 1.88279 0.01 0.01
-5.50895 0.69876 0 0 8.23173e+19 0 0 0 4.50389 -1.70702 0.337972 -5.22418 1.88436 0.01 0.01
-5.51255 0.628657 0 0 8.23165e+19 0 0 0 4.50395 -1.6938 0.342509 -5.21863 1.88559 0.01 0.01
-5.51515 0.558574 0 0 8.23147e+19 0 0 0 4.50399 -1.6808 0.347056 -5.21308 1.88648 0.01 0.01
-5.51685 0.488501 0 0 8.23096e+19 0 0 0 4.50409 -1.66781 0.351606 -5.20763 1.88706 0.01 0.01
-5.51755 0.418478 0 0 8.23037e+19 0 0 0 4.50416 -1.65447 0.356165 -5.20218 1.8873 0.01 0.01
-5.51725 0.348515 0 0 8.2297e+19 0 0 0 4.50418 -1.64077 0.36073 -5.19674 1.8872 0.01 0.01
-5.51605 0.278612 0 0 8.22871e+19 0 0 0 4.50427 -1.62621 0.365296 -5.19139 1.88679 0.01 0.01
-5.51385 0.208799 0 0 8.22766e+19 0 0 0 4.50432 -1.61313 0.369868 -5.18604 1.88604 0.01 0.01
-5.51075 0.139086 0 0 8.2263e+19 0 0 0 4.50444 -1.59866 0.374438 -5.1808 1.88498 0.01 0.01
-5.50665 0.0694801 0 0 8.22488e+19 0 0 0 4.5045 -1.58552 0.379013 -5.17554 1.88357 0.01 0.01
-5.50155 6.10799e-16 0 0 8.22344e+19 0 0 0 4.5045 -1.57283 0.383592 -5.17028 1.88183 0.01 0.01
-5.49555 -0.0693401 0 0 8.22172e+19 0 0 0 4.50457 -1.55839 0.388168 -5.16511 1.87978 0.01 0.01
-5.48865 -0.138526 0 0 8.21972e+19 0 0 0 4.50466 -1.54597 0.392735 -5.16002 1.87742 0.01 0.01
-5.48075 -0.207549 0 0 8.21772e+19 0 0 0 4.50471 -1.53154 0.397309 -5.15492 1.87472 0.01 0.01
-5.47195 -0.276392 0 0 8.21545e+19 0 0 0 4.50479 -1.51809 0.401873 -5.14989 1.87171 0.01 0.01
-5.46225 -0.345035 0 0 8.21297e+19 0 0 0 4.50489 -1.50583 0.406429 -5.14494 1.86839 0.01 0.01
-5.45155 -0.413479 0 0 8.21052e+19 0 0 0 4.50492 -1.49268 0.410987 -5.13996 1.86473 0.01 0.01
-5.43996 -0.481702 0 0 8.20784e+19 0 0 0 4.50497 -1.47907 0.415537 -5.13504 1.86076 0.01 0.01
-5.42746 -0.549685 0 0 8.205e+19 0 0 0 4.50504 -1.46599 0.420078 -5.13019 1.85649 0.01 0.01
-5.41406 -0.617428 0 0 8.20197e+19 0 0 0 4.50512 -1.45277 0.424609 -5.12539 1.8519 0.01 0.01
-5.39976 -0.684911 0 0 8.19878e+19 0 0 0 4.50519 -1.4392 0.429129 -5.12064 1.84701 0.01 0.01
-5.38456 -0.752125 0 0 8.19545e+19 0 0 0 4.50527 -1.42498 0.433639 -5.11594 1.84181 0.01 0.01
-5.36846 -0.819058 0 0 8.19197e+19 0 0 0 4.50534 -1.41093 0.43814 -5.11127 1.83631 0.01 0.01
-5.35146 -0.885691 0 0 8.18841e+19 0 0 0 4.50539 -1.39878 0.442627 -5.10664 1.83049 0.01 0.01
-5.33357 -0.952015 0 0 8.18475e+19 0 0 0 4.50542 -1.38569 0.447106 -5.10204 1.82437 0.01 0.01
-5.31487 -1.018 0 0 8.1808e+19 0 0 0 4.50551 -1.37163 0.451558 -5.09754 1.81797 0.01 0.01
-5.29517 -1.08369 0 0 8.17697e+19 0 0 0 4.50548 -1.35821 0.456013 -5.09298 1.81124 0.01 0.01
-5.27477 -1.14909 0 0 8.17262e+19 0 0 0 4.50562 -1.34459 0.460437 -5.08862 1.80426 0.01 0.01
-5.25347 -1.21398 0 0 8.16838e+19 0 0 0 4.50567 -1.33238 0.464844 -5.08423 1.79697 0.01 0.01
-5.23128 -1.27867 0 0 8.16397e+19 0 0 0 4.50571 -1.3192 0.469244 -5.07988 1.78938 0.01 0.01
-5.20828 -1.34287 0 0 8.15947e+19 0 0 0 4.50573 -1.3051 0.473615 -5.07557 1.78151 0.01 0.01
-5.18448 -1.40676 0 0 8.1547e+19 0 0 0 4.50582 -1.29222 0.477969 -5.07136 1.77337 0.01 0.01
-5.15988 -1.47015 0 0 8.14986e+19 0 0 0 4.50588 -1.27816 0.482296 -5.06719 1.76496 0.01 0.01
-5.13449 -1.53325 0 0 8.14477e+19 0 0 0 4.50599 -1.26563 0.486604 -5.0631 1.75627 0.01 0.01
-5.10819 -1.59584 0 0 8.13984e+19 0 0 0 4.50598 -1.2511 0.490899 -5.05896 1.74728 0.01 0.01
-5.08119 -1.65803 0 0 8.13457e+19 0 0 0 4.50606 -1.23792 0.49516 -5.05495 1.73804 0.01 0.01
-5.05339 -1.71983 0 0 8.12919e+19 0 0 0 4.50614 -1.22434 0.4994 -5.05099 1.72854 0.01 0.01
-5.0248 -1.78112 0 0 8.12378e+19 0 0 0 4.50618 -1.21272 0.503617 -5.04703 1.71875 0.01 0.01
-4.9954 -1.84202 0 0 8.11826e+19 0 0 0 4.50619 -1.19921 0.507811 -5.04312 1.7087 0.01 0.01
-4.9653 -1.90241 0 0 8.11255e+19 0 0 0 4.50625 -1.18598 0.511973 -5.03929 1.6984 0.01 0.01
-4.93451 -1.9623 0 0 8.10667e+19 0 0 0 4.50635 -1.17309 0.516103 -5.03554 1.68787 0.01 0.01
-4.90291 -2.0218 0 0 8.1007e+19 0 0 0 4.50642 -1.16016 0.520213 -5.03183 1.67706 0.01 0.01
-4.87061 -2.08079 0 0 8.09459e+19 0 0 0 4.50651 -1.14679 0.52429 -5.02818 1.66601 0.01 0.01
-4.83752 -2.13919 0 0 8.08862e+19 0 0 0 4.50648 -1.13353 0.528346 -5.02447 1.65469 0.01 0.01
-4.80382 -2.19718 0 0 8.08224e+19 0 0 0 4.5066 -1.11898 0.53236 -5.02094 1.64317 0.01 0.01
-4.76932 -2.25457 0 0 8.07603e+19 0 0 0 4.50658 -1.1065 0.536354 -5.01734 1.63137 0.01 0.01
-4.73423 -2.31147 0 0 8.06954e+19 0 0 0 4.50665 -1.09303 0.540307 -5.01388 1.61936 0.01 0.01
-4.69843 -2.36786 0 0 8.06293e+19 0 0 0 4.50672 -1.08092 0.54423 -5.01046 1.60712 0.01 0.01
-4.66193 -2.42376 0 0 8.05626e+19 0 0 0 4.50678 -1.06691 0.548124 -5.00708 1.59463 0.01 0.01
-4.62484 -2.47905 0 0 8.04945e+19 0 0 0 4.50686 -1.05414 0.551978 -5.00377 1.58195 0.01 0.01
-4.58704 -2.53385 0 0 8.0426e+19 0 0 0 4.50693 -1.04073 0.555804 -5.0005 1.56902 0.01 0.01
-4.54855 -2.58804 0 0 8.03577e+19 0 0 0 4.50691 -1.0279 0.559601 -4.9972 1.55585 0.01 0.01
-4.50955 -2.64164 0 0 8.02869e+19 0 0 0 4.50699 -1.01476 0.563349 -4.99403 1.54251 0.01 0.01
-4.46985 -2.69473 0 0 8.02158e+19 0 0 0 4.50703 -1.00242 0.567069 -4.99089 1.52893 0.01 0.01
-4.42956 -2.74723 0 0 8.0144e+19 0 0 0 4.50706 -0.989476 0.570753 -4.98778 1.51515 0.01 0.01
-4.38866 -2.79912 0 0 8.00714e+19 0 0 0 4.50709 -0.977231 0.574402 -4.98471 1.50116 0.01 0.01
-4.34727 -2.85051 0 0 7.99962e+19 0 0 0 4.50723 -0.963217 0.578 -4.9818 1.487 0.01 0.01
-4.30517 -2.90121 0 0 7.99228e+19 0 0 0 4.50721 -0.949864 0.581576 -4.97879 1.4726 0.01 0.01
-4.26257 -2.9514 0 0 7.98469e+19 0 0 0 4.5073 -0.937249 0.585105 -4.97592 1.45803 0.01 0.01
-4.21938 -3.001 0 0 7.97702e+19 0 0 0 4.50736 -0.924772 0.588599 -4.97308 1.44326 0.01 0.01
-4.17568 -3.04989 0 0 7.96937e+19 0 0 0 4.50739 -0.91094 0.592053 -4.97026 1.42831 0.01 0.01
-4.13139 -3.09829 0 0 7.96159e+19 0 0 0 4.50744 -0.899678 0.595468 -4.9675 1.41316 0.01 0.01
-4.08659 -3.14599 0 0 7.95381e+19 0 0 0 4.50745 -0.886357 0.598842 -4.96476 1.39784 0.01 0.01
-4.0413 -3.19308 0 0 7.94593e+19 0 0 0 4.5075 -0.872616 0.602177 -4.96208 1.38234 0.01 0.01
-3.9954 -3.23958 0 0 7.93806e+19 0 0 0 4.50748 -0.860948 0.605476 -4.9594 1.36664 0.01 0.01
-3.9491 -3.28547 0 0 7.92997e+19 0 0 0 4.50755 -0.847283 0.608726 -4.95685 1.35081 0.01 0.01
-3.90231 -3.33077 0 0 7.92178e+19 0 0 0 4.50763 -0.834632 0.611932 -4.95435 1.3348 0.01 0.01
-3.85501 -3.37536 0 0 7.91368e+19 0 0 0 4.50765 -0.823022 0.615103 -4.95184 1.31862 0.01 0.01
-3.80722 -3.41936 0 0 7.90547e+19 0 0 0 4.50766 -0.809253 0.618232 -4.94937 1.30228 0.01 0.01
-3.75902 -3.46275 0 0 7.89713e+19 0 0 0 4.50775 -0.796301 0.621312 -4.94701 1.28579 0.01 0.01
-3.71033 -3.50545 0 0 7.88881e+19 0 0 0 4.50774 -0.78419 0.624354 -4.94461 1.26913 0.01 0.01
-3.66123 -3.54755 0 0 7.88039e+19 0 0 0 4.5078 -0.771513 0.62735 -4.94232 1.25234 0.01 0.01
-3.61174 -3.58904 0 0 7.87178e+19 0 0 0 4.50792 -0.759482 0.630297 -4.94012 1.23541 0.01 0.01
-3.56174 -3.62974 0 0 7.86343e+19 0 0 0 4.50785 -0.74605 0.633215 -4.9378 1.21831 0.01 0.01
-3.51135 -3.66993 0 0 7.85481e+19 0 0 0 4.50791 -0.734152 0.63608 -4.93564 1.20107 0.01 0.01
-3.46055 -3.70943 0 0 7.84621e+19 0 0 0 4.50794 -0.721397 0.638904 -4.93349 1.1837 0.01 0.01
-3.40936 -3.74833 0 0 7.83746e+19 0 0 0 4.50799 -0.708511 0.641681 -4.93141 1.16619 0.01 0.01
-3.35786 -3.78652 0 0 7.82868e+19 0 0 0 4.50807 -0.696399 0.644408 -4.92939 1.14857 0.01 0.01
-3.30587 -3.82402 0 0 7.82002e+19 0 0 0 4.50803 -0.684349 0.647105 -4.9273 1.13079 0.01 0.01
-3.25357 -3.86091 0 0 7.81119e+19 0 0 0 4.50807 -0.6718 0.649746 -4.92534 1.1129 0.01 0.01
-3.20088 -3.89721 0 0 7.80226e+19 0 0 0 4.50813 -0.658434 0.652343 -4.92343 1.09487 0.01 0.01
-3.14789 -3.93281 0 0 7.7933e+19 0 0 0 4.50819 -0.646996 0.654893 -4.92157 1.07675 0.01 0.01
-3.09449 -3.9677 0 0 7.78438e+19 0 0 0 4.50818 -0.634404 0.657404 -4.91968 1.05848 0.01 0.01
-3.0408 -4.002 0 0 7.77533e+19 0 0 0 4.50823 -0.621277 0.659862 -4.91789 1.04012 0.01 0.01
